freq,psd_x,psd_y,psd_z,psd_xyz
0.0,1.175e+01,1.884e+02,3.998e+01,2.402e+02
1.6,1.428e+01,1.103e+02,3.567e+01,1.603e+02
3.2,8.959e+00,2.662e+01,1.913e+01,5.471e+01
4.8,8.997e+00,4.665e+02,1.964e+01,4.951e+02
6.4,1.041e+01,1.544e+03,4.227e+01,1.596e+03
8.0,1.137e+01,1.926e+03,8.572e+01,2.023e+03
9.6,1.088e+01,2.389e+03,7.397e+01,2.473e+03
11.2,1.280e+01,3.624e+03,5.822e+01,3.695e+03
12.8,1.627e+01,5.419e+03,5.475e+01,5.490e+03
14.4,1.896e+01,7.908e+03,6.251e+01,7.990e+03
16.0,2.049e+01,1.087e+04,8.975e+01,1.098e+04
17.6,2.095e+01,1.457e+04,1.303e+02,1.472e+04
19.2,3.014e+01,1.995e+04,1.459e+02,2.013e+04
20.8,8.585e+01,2.633e+04,2.029e+02,2.662e+04
22.4,2.199e+02,3.331e+04,2.160e+02,3.375e+04
24.0,3.334e+02,4.454e+04,2.888e+02,4.516e+04
25.6,3.114e+02,5.491e+04,5.522e+02,5.578e+04
27.2,1.346e+02,5.665e+04,1.023e+03,5.781e+04
28.8,3.225e+01,4.784e+04,1.633e+03,4.951e+04
30.3,6.695e+01,4.504e+04,2.080e+03,4.718e+04
31.9,1.838e+02,6.047e+04,2.494e+03,6.315e+04
33.5,4.076e+02,9.125e+04,4.467e+03,9.612e+04
35.1,1.137e+03,1.360e+05,1.126e+04,1.484e+05
36.7,3.145e+03,2.144e+05,2.886e+04,2.464e+05
38.3,5.298e+03,2.495e+05,4.523e+04,3.000e+05
39.9,5.637e+03,2.124e+05,3.723e+04,2.553e+05
41.5,7.677e+03,2.418e+05,3.030e+04,2.798e+05
43.1,1.214e+04,2.965e+05,3.100e+04,3.396e+05
44.7,1.804e+04,2.502e+05,2.947e+04,2.977e+05
46.3,2.649e+04,1.615e+05,2.387e+04,2.119e+05
47.9,2.289e+04,8.033e+04,1.791e+04,1.211e+05
49.5,1.179e+04,3.041e+04,1.838e+04,6.058e+04
51.1,1.317e+04,2.629e+04,5.676e+04,9.622e+04
52.7,1.300e+04,3.252e+04,1.295e+05,1.750e+05
54.3,7.179e+03,2.311e+04,1.120e+05,1.423e+05
55.9,5.450e+03,2.037e+04,7.255e+04,9.837e+04
57.5,6.763e+03,2.357e+04,4.877e+04,7.910e+04
59.1,1.906e+04,2.773e+04,3.614e+04,8.292e+04
60.7,3.925e+04,4.579e+04,2.729e+04,1.123e+05
62.3,3.154e+04,5.729e+04,1.483e+04,1.037e+05
63.9,1.840e+04,6.183e+04,7.254e+03,8.749e+04
65.5,1.007e+04,6.454e+04,7.601e+03,8.221e+04
67.1,4.911e+03,6.101e+04,1.762e+04,8.354e+04
68.7,2.528e+03,4.438e+04,3.409e+04,8.100e+04
70.3,3.725e+03,2.524e+04,3.896e+04,6.792e+04
71.9,6.976e+03,1.522e+04,3.628e+04,5.847e+04
73.5,7.482e+03,8.788e+03,4.243e+04,5.870e+04
75.1,5.251e+03,9.188e+03,5.057e+04,6.500e+04
76.7,2.701e+03,1.201e+04,3.902e+04,5.372e+04
78.3,1.420e+03,1.563e+04,2.659e+04,4.364e+04
79.9,5.808e+02,1.895e+04,1.981e+04,3.934e+04
81.5,3.760e+02,2.006e+04,1.697e+04,3.741e+04
83.1,2.988e+02,2.034e+04,2.298e+04,4.362e+04
84.7,2.329e+02,2.060e+04,4.048e+04,6.131e+04
86.3,2.193e+02,2.116e+04,4.712e+04,6.850e+04
87.9,2.139e+02,2.218e+04,3.603e+04,5.842e+04
89.5,1.801e+02,2.248e+04,2.445e+04,4.711e+04
91.0,1.102e+02,2.061e+04,2.673e+04,4.746e+04
92.6,4.599e+01,1.572e+04,3.180e+04,4.757e+04
94.2,4.464e+01,1.134e+04,2.988e+04,4.126e+04
95.8,8.644e+01,9.791e+03,3.321e+04,4.309e+04
97.4,2.056e+02,1.511e+04,2.764e+04,4.296e+04
99.0,2.297e+02,2.353e+04,1.071e+04,3.447e+04
100.6,1.070e+02,2.215e+04,4.710e+03,2.697e+04
102.2,1.439e+02,2.053e+04,6.701e+03,2.738e+04
103.8,2.561e+02,1.892e+04,8.975e+03,2.815e+04
105.4,3.233e+02,1.743e+04,1.012e+04,2.788e+04
107.0,3.263e+02,1.622e+04,1.028e+04,2.682e+04
108.6,3.672e+02,1.504e+04,1.023e+04,2.564e+04
110.2,5.075e+02,1.383e+04,1.016e+04,2.450e+04
111.8,8.085e+02,1.285e+04,1.037e+04,2.403e+04
113.4,1.324e+03,1.192e+04,1.054e+04,2.378e+04
115.0,1.731e+03,1.101e+04,9.752e+03,2.249e+04
116.6,1.379e+03,1.003e+04,7.888e+03,1.929e+04
118.2,8.219e+02,9.208e+03,7.030e+03,1.706e+04
119.8,7.618e+02,8.479e+03,6.456e+03,1.570e+04
121.4,6.220e+02,7.179e+03,5.179e+03,1.298e+04
123.0,5.799e+02,6.600e+03,4.610e+03,1.179e+04
124.6,5.933e+02,6.347e+03,4.016e+03,1.096e+04
126.2,5.645e+02,6.112e+03,3.719e+03,1.040e+04
127.8,4.546e+02,5.785e+03,3.486e+03,9.726e+03
129.4,2.818e+02,5.438e+03,3.254e+03,8.974e+03
131.0,1.738e+02,5.152e+03,2.887e+03,8.213e+03
132.6,1.216e+02,3.866e+03,1.923e+03,5.910e+03
134.2,1.108e+02,9.776e+02,4.689e+02,1.557e+03
135.8,1.199e+02,2.876e+02,2.148e+02,6.222e+02
137.4,1.080e+02,2.730e+02,3.222e+02,7.032e+02
139.0,8.876e+01,2.617e+02,3.799e+02,7.303e+02
140.6,9.194e+01,2.363e+02,4.239e+02,7.522e+02
142.2,1.131e+02,2.160e+02,4.443e+02,7.734e+02
143.8,1.054e+02,1.961e+02,3.863e+02,6.878e+02
145.4,8.349e+01,2.190e+02,3.158e+02,6.182e+02
147.0,6.413e+01,2.265e+02,2.497e+02,5.403e+02
148.6,6.384e+01,1.947e+02,2.337e+02,4.922e+02
150.1,7.496e+01,1.612e+02,2.484e+02,4.846e+02
151.7,8.055e+01,1.326e+02,2.684e+02,4.816e+02
153.3,8.267e+01,1.209e+02,2.678e+02,4.714e+02
154.9,6.092e+01,1.228e+02,2.285e+02,4.122e+02
156.5,4.576e+01,1.075e+02,1.730e+02,3.263e+02
158.1,4.366e+01,8.123e+01,1.260e+02,2.509e+02
159.7,4.220e+01,5.580e+01,9.740e+01,1.954e+02
161.3,3.503e+01,4.179e+01,7.387e+01,1.507e+02
162.9,3.308e+01,3.685e+01,5.516e+01,1.251e+02
164.5,4.238e+01,3.880e+01,7.528e+01,1.565e+02
166.1,5.201e+01,4.418e+01,1.210e+02,2.172e+02
167.7,5.761e+01,5.192e+01,1.781e+02,2.877e+02
169.3,5.947e+01,6.520e+01,2.359e+02,3.605e+02
170.9,5.605e+01,8.233e+01,2.737e+02,4.120e+02
172.5,6.074e+01,9.183e+01,3.026e+02,4.551e+02
174.1,7.091e+01,9.281e+01,3.413e+02,5.050e+02
175.7,8.002e+01,1.084e+02,4.124e+02,6.008e+02
177.3,7.453e+01,1.484e+02,4.772e+02,7.001e+02
178.9,6.298e+01,1.876e+02,4.889e+02,7.395e+02
180.5,2.917e+01,1.300e+02,1.912e+02,3.504e+02
182.1,1.777e+01,1.012e+02,7.773e+01,1.967e+02
183.7,1.686e+01,9.463e+01,8.280e+01,1.943e+02
185.3,1.867e+01,9.822e+01,1.008e+02,2.176e+02
186.9,1.703e+01,1.068e+02,1.206e+02,2.444e+02
188.5,1.816e+01,1.149e+02,1.303e+02,2.634e+02
190.1,1.993e+01,1.206e+02,1.513e+02,2.917e+02
191.7,1.637e+01,1.245e+02,1.363e+02,2.771e+02
193.3,1.493e+01,1.066e+02,1.204e+02,2.419e+02
194.9,1.455e+01,9.577e+01,1.011e+02,2.114e+02
196.5,1.357e+01,1.091e+02,8.935e+01,2.120e+02
198.1,1.191e+01,1.071e+02,7.726e+01,1.963e+02
199.7,1.219e+01,9.962e+01,6.565e+01,1.775e+02
